# Temperatura_=_20.0
# Concentracion g/m^3_=_10770.0
# C_Vs_to_Am_M_A/Vsm_=_116720831517.84952
# pendiente_HvsI_1/m_=_3716.3
# ordenada_HvsI_A/m_=_1297.0
# frecuencia_Hz_=_108113.05975322984
# Promedio de 8 ciclos

Tiempo_(s)	Campo_(V.s)	Magnetizacion_(V.s)	Campo_(kA/m)	Magnetizacion_(A/m)
0.000000e+00	-1.062402e-09	-4.100626e-10	-9.459768e+00	-5.701972e+01
1.000000e-08	-1.062462e-09	-2.388152e-10	-9.460304e+00	-5.710352e+01
2.000000e-08	-1.062468e-09	-2.254306e-10	-9.460358e+00	-5.718509e+01
3.000000e-08	-1.062415e-09	-3.285548e-10	-9.459888e+00	-5.726428e+01
4.000000e-08	-1.062313e-09	-4.980125e-10	-9.458975e+00	-5.734025e+01
5.000000e-08	-1.062172e-09	-6.396755e-10	-9.457726e+00	-5.741136e+01
6.000000e-08	-1.062001e-09	-6.954237e-10	-9.456199e+00	-5.747521e+01
7.000000e-08	-1.061798e-09	-6.226556e-10	-9.454395e+00	-5.752875e+01
8.000000e-08	-1.061556e-09	-4.807706e-10	-9.452239e+00	-5.756864e+01
9.000000e-08	-1.061252e-09	-3.745508e-10	-9.449531e+00	-5.759154e+01
1.000000e-07	-1.060861e-09	-3.297885e-10	-9.446051e+00	-5.759465e+01
1.100000e-07	-1.060402e-09	-4.085599e-10	-9.441960e+00	-5.757601e+01
1.200000e-07	-1.059882e-09	-5.244614e-10	-9.437331e+00	-5.753495e+01
1.300000e-07	-1.059302e-09	-6.068384e-10	-9.432170e+00	-5.747221e+01
1.400000e-07	-1.058661e-09	-5.970320e-10	-9.426461e+00	-5.739004e+01
1.500000e-07	-1.057952e-09	-4.935385e-10	-9.420144e+00	-5.729207e+01
1.600000e-07	-1.057185e-09	-4.067070e-10	-9.413316e+00	-5.718297e+01
1.700000e-07	-1.056368e-09	-3.795625e-10	-9.406047e+00	-5.706803e+01
1.800000e-07	-1.055518e-09	-4.387853e-10	-9.398472e+00	-5.695263e+01
1.900000e-07	-1.054634e-09	-5.101261e-10	-9.390608e+00	-5.684172e+01
2.000000e-07	-1.053709e-09	-5.539261e-10	-9.382372e+00	-5.673927e+01
2.100000e-07	-1.052733e-09	-5.362271e-10	-9.373676e+00	-5.664793e+01
2.200000e-07	-1.051714e-09	-4.799417e-10	-9.364604e+00	-5.656881e+01
2.300000e-07	-1.050663e-09	-4.398761e-10	-9.355243e+00	-5.650145e+01
2.400000e-07	-1.049573e-09	-4.195180e-10	-9.345539e+00	-5.644398e+01
2.500000e-07	-1.048432e-09	-4.435726e-10	-9.335377e+00	-5.639343e+01
2.600000e-07	-1.047230e-09	-4.759691e-10	-9.324680e+00	-5.634621e+01
2.700000e-07	-1.045988e-09	-5.111046e-10	-9.313623e+00	-5.629861e+01
2.800000e-07	-1.044706e-09	-5.245051e-10	-9.302199e+00	-5.624726e+01
2.900000e-07	-1.043369e-09	-5.082183e-10	-9.290302e+00	-5.618959e+01
3.000000e-07	-1.041986e-09	-4.735483e-10	-9.277982e+00	-5.612407e+01
3.100000e-07	-1.040549e-09	-4.300753e-10	-9.265188e+00	-5.605036e+01
3.200000e-07	-1.039061e-09	-4.229949e-10	-9.251943e+00	-5.596925e+01
3.300000e-07	-1.037532e-09	-4.405247e-10	-9.238324e+00	-5.588244e+01
3.400000e-07	-1.035962e-09	-4.776341e-10	-9.224347e+00	-5.579220e+01
3.500000e-07	-1.034357e-09	-4.990451e-10	-9.210057e+00	-5.570098e+01
3.600000e-07	-1.032723e-09	-4.963807e-10	-9.195509e+00	-5.561099e+01
3.700000e-07	-1.031054e-09	-4.796741e-10	-9.180648e+00	-5.552385e+01
3.800000e-07	-1.029349e-09	-4.548307e-10	-9.165459e+00	-5.544037e+01
3.900000e-07	-1.027611e-09	-4.442580e-10	-9.149989e+00	-5.536040e+01
4.000000e-07	-1.025828e-09	-4.397130e-10	-9.134111e+00	-5.528291e+01
4.100000e-07	-1.023994e-09	-4.513763e-10	-9.117777e+00	-5.520619e+01
4.200000e-07	-1.022095e-09	-4.637603e-10	-9.100877e+00	-5.512807e+01
4.300000e-07	-1.020126e-09	-4.715087e-10	-9.083339e+00	-5.504637e+01
4.400000e-07	-1.018091e-09	-4.664121e-10	-9.065224e+00	-5.495918e+01
4.500000e-07	-1.015992e-09	-4.494277e-10	-9.046532e+00	-5.486522e+01
4.600000e-07	-1.013828e-09	-4.387574e-10	-9.027263e+00	-5.476398e+01
4.700000e-07	-1.011584e-09	-4.338615e-10	-9.007277e+00	-5.465587e+01
4.800000e-07	-1.009272e-09	-4.434020e-10	-8.986693e+00	-5.454210e+01
4.900000e-07	-1.006905e-09	-4.511667e-10	-8.965618e+00	-5.442452e+01
5.000000e-07	-1.004482e-09	-4.546363e-10	-8.944042e+00	-5.430533e+01
5.100000e-07	-1.002005e-09	-4.482649e-10	-8.921986e+00	-5.418675e+01
5.200000e-07	-9.994764e-10	-4.367391e-10	-8.899473e+00	-5.407068e+01
5.300000e-07	-9.969062e-10	-4.316191e-10	-8.876588e+00	-5.395841e+01
5.400000e-07	-9.942969e-10	-4.297615e-10	-8.853354e+00	-5.385045e+01
5.500000e-07	-9.916423e-10	-4.349226e-10	-8.829717e+00	-5.374648e+01
5.600000e-07	-9.889420e-10	-4.367511e-10	-8.805673e+00	-5.364536e+01
5.700000e-07	-9.861999e-10	-4.387642e-10	-8.781257e+00	-5.354538e+01
5.800000e-07	-9.834086e-10	-4.348336e-10	-8.756403e+00	-5.344450e+01
5.900000e-07	-9.805755e-10	-4.275009e-10	-8.731177e+00	-5.334064e+01
6.000000e-07	-9.776939e-10	-4.218721e-10	-8.705519e+00	-5.323203e+01
6.100000e-07	-9.747520e-10	-4.185998e-10	-8.679323e+00	-5.311743e+01
6.200000e-07	-9.717572e-10	-4.247160e-10	-8.652658e+00	-5.299634e+01
6.300000e-07	-9.686987e-10	-4.294754e-10	-8.625424e+00	-5.286897e+01
6.400000e-07	-9.655766e-10	-4.320773e-10	-8.597625e+00	-5.273624e+01
6.500000e-07	-9.623991e-10	-4.294052e-10	-8.569331e+00	-5.259956e+01
6.600000e-07	-9.591580e-10	-4.253576e-10	-8.540473e+00	-5.246059e+01
6.700000e-07	-9.558562e-10	-4.213184e-10	-8.511073e+00	-5.232092e+01
6.800000e-07	-9.525030e-10	-4.170709e-10	-8.481215e+00	-5.218182e+01
6.900000e-07	-9.490934e-10	-4.168331e-10	-8.450856e+00	-5.204402e+01
7.000000e-07	-9.456378e-10	-4.180125e-10	-8.420087e+00	-5.190754e+01
7.100000e-07	-9.421503e-10	-4.223878e-10	-8.389034e+00	-5.177171e+01
7.200000e-07	-9.386188e-10	-4.225552e-10	-8.357589e+00	-5.163524e+01
7.300000e-07	-9.350504e-10	-4.198128e-10	-8.325815e+00	-5.149645e+01
7.400000e-07	-9.314518e-10	-4.159047e-10	-8.293773e+00	-5.135350e+01
7.500000e-07	-9.278180e-10	-4.124703e-10	-8.261417e+00	-5.120469e+01
7.600000e-07	-9.241498e-10	-4.116298e-10	-8.228755e+00	-5.104875e+01
7.700000e-07	-9.204424e-10	-4.120231e-10	-8.195743e+00	-5.088505e+01
7.800000e-07	-9.166954e-10	-4.161965e-10	-8.162380e+00	-5.071371e+01
7.900000e-07	-9.129041e-10	-4.173646e-10	-8.128621e+00	-5.053562e+01
8.000000e-07	-9.090628e-10	-4.150595e-10	-8.094419e+00	-5.035233e+01
8.100000e-07	-9.051808e-10	-4.084344e-10	-8.059852e+00	-5.016586e+01
8.200000e-07	-9.012532e-10	-4.017609e-10	-8.024881e+00	-4.997840e+01
8.300000e-07	-8.972842e-10	-3.994460e-10	-7.989540e+00	-4.979203e+01
8.400000e-07	-8.932902e-10	-4.011955e-10	-7.953977e+00	-4.960846e+01
8.500000e-07	-8.892697e-10	-4.060643e-10	-7.918178e+00	-4.942874e+01
8.600000e-07	-8.852182e-10	-4.054748e-10	-7.882103e+00	-4.925319e+01
8.700000e-07	-8.811415e-10	-4.003425e-10	-7.845803e+00	-4.908132e+01
8.800000e-07	-8.770396e-10	-3.934636e-10	-7.809279e+00	-4.891189e+01
8.900000e-07	-8.729068e-10	-3.901668e-10	-7.772481e+00	-4.874310e+01
9.000000e-07	-8.687402e-10	-3.896628e-10	-7.735380e+00	-4.857283e+01
9.100000e-07	-8.645420e-10	-3.890570e-10	-7.698000e+00	-4.839886e+01
9.200000e-07	-8.603185e-10	-3.892563e-10	-7.660392e+00	-4.821916e+01
9.300000e-07	-8.560544e-10	-3.914051e-10	-7.622425e+00	-4.803207e+01
9.400000e-07	-8.517506e-10	-3.966832e-10	-7.584103e+00	-4.783651e+01
9.500000e-07	-8.474116e-10	-3.968545e-10	-7.545468e+00	-4.763198e+01
9.600000e-07	-8.430339e-10	-3.930097e-10	-7.506488e+00	-4.741860e+01
9.700000e-07	-8.386229e-10	-3.881476e-10	-7.467212e+00	-4.719699e+01
9.800000e-07	-8.341756e-10	-3.842074e-10	-7.427612e+00	-4.696816e+01
9.900000e-07	-8.296904e-10	-3.810156e-10	-7.387676e+00	-4.673334e+01
1.000000e-06	-8.251689e-10	-3.762427e-10	-7.347416e+00	-4.649382e+01
1.010000e-06	-8.206137e-10	-3.730990e-10	-7.306856e+00	-4.625084e+01
1.020000e-06	-8.160247e-10	-3.708040e-10	-7.265995e+00	-4.600547e+01
1.030000e-06	-8.113925e-10	-3.709130e-10	-7.224749e+00	-4.575862e+01
1.040000e-06	-8.067131e-10	-3.715364e-10	-7.183083e+00	-4.551100e+01
1.050000e-06	-8.020045e-10	-3.698848e-10	-7.141157e+00	-4.526317e+01
1.060000e-06	-7.972621e-10	-3.655053e-10	-7.098930e+00	-4.501561e+01
1.070000e-06	-7.924783e-10	-3.597509e-10	-7.056334e+00	-4.476872e+01
1.080000e-06	-7.876628e-10	-3.556495e-10	-7.013457e+00	-4.452284e+01
1.090000e-06	-7.828242e-10	-3.514681e-10	-6.970373e+00	-4.427825e+01
1.100000e-06	-7.779603e-10	-3.476967e-10	-6.927064e+00	-4.403510e+01
1.110000e-06	-7.730662e-10	-3.440638e-10	-6.883486e+00	-4.379334e+01
1.120000e-06	-7.681470e-10	-3.419209e-10	-6.839685e+00	-4.355261e+01
1.130000e-06	-7.631985e-10	-3.410058e-10	-6.795623e+00	-4.331222e+01
1.140000e-06	-7.582165e-10	-3.385570e-10	-6.751263e+00	-4.307106e+01
1.150000e-06	-7.532017e-10	-3.357793e-10	-6.706610e+00	-4.282772e+01
1.160000e-06	-7.481493e-10	-3.337538e-10	-6.661623e+00	-4.258051e+01
1.170000e-06	-7.430590e-10	-3.322950e-10	-6.616298e+00	-4.232765e+01
1.180000e-06	-7.379302e-10	-3.296285e-10	-6.570631e+00	-4.206754e+01
1.190000e-06	-7.327487e-10	-3.252925e-10	-6.524494e+00	-4.179894e+01
1.200000e-06	-7.275042e-10	-3.201433e-10	-6.477796e+00	-4.152125e+01
1.210000e-06	-7.222070e-10	-3.188358e-10	-6.430630e+00	-4.123465e+01
1.220000e-06	-7.168559e-10	-3.200006e-10	-6.382983e+00	-4.094024e+01
1.230000e-06	-7.114443e-10	-3.190715e-10	-6.334797e+00	-4.064002e+01
1.240000e-06	-7.059877e-10	-3.156628e-10	-6.286211e+00	-4.033671e+01
1.250000e-06	-7.004834e-10	-3.108671e-10	-6.237200e+00	-4.003357e+01
1.260000e-06	-6.949336e-10	-3.085024e-10	-6.187784e+00	-3.973399e+01
1.270000e-06	-6.893531e-10	-3.064847e-10	-6.138093e+00	-3.944114e+01
1.280000e-06	-6.837365e-10	-3.051996e-10	-6.088083e+00	-3.915759e+01
1.290000e-06	-6.780931e-10	-3.051618e-10	-6.037833e+00	-3.888494e+01
1.300000e-06	-6.724354e-10	-3.058508e-10	-5.987456e+00	-3.862364e+01
1.310000e-06	-6.667598e-10	-3.079051e-10	-5.936920e+00	-3.837287e+01
1.320000e-06	-6.610656e-10	-3.065886e-10	-5.886218e+00	-3.813069e+01
1.330000e-06	-6.553511e-10	-3.023324e-10	-5.835335e+00	-3.789422e+01
1.340000e-06	-6.496134e-10	-2.959997e-10	-5.784246e+00	-3.766004e+01
1.350000e-06	-6.438532e-10	-2.919971e-10	-5.732957e+00	-3.742466e+01
1.360000e-06	-6.380734e-10	-2.911509e-10	-5.681492e+00	-3.718494e+01
1.370000e-06	-6.322700e-10	-2.904767e-10	-5.629818e+00	-3.693853e+01
1.380000e-06	-6.264424e-10	-2.909951e-10	-5.577928e+00	-3.668418e+01
1.390000e-06	-6.205933e-10	-2.914479e-10	-5.525847e+00	-3.642183e+01
1.400000e-06	-6.147107e-10	-2.930105e-10	-5.473468e+00	-3.615262e+01
1.410000e-06	-6.087952e-10	-2.908091e-10	-5.420795e+00	-3.587856e+01
1.420000e-06	-6.028562e-10	-2.852947e-10	-5.367913e+00	-3.560224e+01
1.430000e-06	-5.968874e-10	-2.809369e-10	-5.314766e+00	-3.532626e+01
1.440000e-06	-5.908947e-10	-2.792661e-10	-5.261407e+00	-3.505275e+01
1.450000e-06	-5.848790e-10	-2.799028e-10	-5.207843e+00	-3.478291e+01
1.460000e-06	-5.788322e-10	-2.783828e-10	-5.154001e+00	-3.451668e+01
1.470000e-06	-5.727592e-10	-2.758077e-10	-5.099926e+00	-3.425264e+01
1.480000e-06	-5.666637e-10	-2.738698e-10	-5.045651e+00	-3.398802e+01
1.490000e-06	-5.605458e-10	-2.734340e-10	-4.991177e+00	-3.371908e+01
1.500000e-06	-5.544079e-10	-2.725917e-10	-4.936523e+00	-3.344156e+01
1.510000e-06	-5.482531e-10	-2.707728e-10	-4.881720e+00	-3.315132e+01
1.520000e-06	-5.420792e-10	-2.685326e-10	-4.826747e+00	-3.284498e+01
1.530000e-06	-5.358827e-10	-2.664806e-10	-4.771573e+00	-3.252050e+01
1.540000e-06	-5.296562e-10	-2.646630e-10	-4.716131e+00	-3.217765e+01
1.550000e-06	-5.234110e-10	-2.596866e-10	-4.660523e+00	-3.181823e+01
1.560000e-06	-5.171411e-10	-2.539147e-10	-4.604694e+00	-3.144601e+01
1.570000e-06	-5.108432e-10	-2.492302e-10	-4.548617e+00	-3.106640e+01
1.580000e-06	-5.045320e-10	-2.492596e-10	-4.492422e+00	-3.068591e+01
1.590000e-06	-4.981964e-10	-2.517432e-10	-4.436009e+00	-3.031141e+01
1.600000e-06	-4.918308e-10	-2.496174e-10	-4.379329e+00	-2.994927e+01
1.610000e-06	-4.854433e-10	-2.417684e-10	-4.322453e+00	-2.960458e+01
1.620000e-06	-4.790405e-10	-2.326447e-10	-4.265442e+00	-2.928052e+01
1.630000e-06	-4.726241e-10	-2.287656e-10	-4.208310e+00	-2.897787e+01
1.640000e-06	-4.661897e-10	-2.285117e-10	-4.151017e+00	-2.869492e+01
1.650000e-06	-4.597355e-10	-2.297645e-10	-4.093548e+00	-2.842763e+01
1.660000e-06	-4.532699e-10	-2.307557e-10	-4.035977e+00	-2.817010e+01
1.670000e-06	-4.467913e-10	-2.309616e-10	-3.978291e+00	-2.791531e+01
1.680000e-06	-4.402991e-10	-2.299560e-10	-3.920483e+00	-2.765600e+01
1.690000e-06	-4.337964e-10	-2.241125e-10	-3.862582e+00	-2.738550e+01
1.700000e-06	-4.272855e-10	-2.169307e-10	-3.804609e+00	-2.709864e+01
1.710000e-06	-4.207683e-10	-2.115671e-10	-3.746578e+00	-2.679225e+01
1.720000e-06	-4.142342e-10	-2.091852e-10	-3.688398e+00	-2.646561e+01
1.730000e-06	-4.076810e-10	-2.098720e-10	-3.630048e+00	-2.612033e+01
1.740000e-06	-4.011094e-10	-2.103819e-10	-3.571533e+00	-2.576013e+01
1.750000e-06	-3.945208e-10	-2.079800e-10	-3.512867e+00	-2.539022e+01
1.760000e-06	-3.879179e-10	-2.030405e-10	-3.454074e+00	-2.501648e+01
1.770000e-06	-3.813005e-10	-1.986844e-10	-3.395152e+00	-2.464462e+01
1.780000e-06	-3.746623e-10	-1.949740e-10	-3.336044e+00	-2.427935e+01
1.790000e-06	-3.680033e-10	-1.913756e-10	-3.276752e+00	-2.392371e+01
1.800000e-06	-3.613246e-10	-1.865446e-10	-3.217284e+00	-2.357861e+01
1.810000e-06	-3.546188e-10	-1.820780e-10	-3.157575e+00	-2.324276e+01
1.820000e-06	-3.478989e-10	-1.796353e-10	-3.097739e+00	-2.291282e+01
1.830000e-06	-3.411611e-10	-1.780736e-10	-3.037745e+00	-2.258392e+01
1.840000e-06	-3.343949e-10	-1.769846e-10	-2.977498e+00	-2.225037e+01
1.850000e-06	-3.276042e-10	-1.756677e-10	-2.917033e+00	-2.190645e+01
1.860000e-06	-3.207821e-10	-1.745506e-10	-2.856287e+00	-2.154725e+01
1.870000e-06	-3.139223e-10	-1.718848e-10	-2.795207e+00	-2.116938e+01
1.880000e-06	-3.070347e-10	-1.672353e-10	-2.733879e+00	-2.077140e+01
1.890000e-06	-3.001327e-10	-1.617189e-10	-2.672423e+00	-2.035409e+01
1.900000e-06	-2.932125e-10	-1.574916e-10	-2.610805e+00	-1.992029e+01
1.910000e-06	-2.862707e-10	-1.550082e-10	-2.548994e+00	-1.947453e+01
1.920000e-06	-2.793056e-10	-1.519500e-10	-2.486976e+00	-1.902239e+01
1.930000e-06	-2.723131e-10	-1.484513e-10	-2.424713e+00	-1.856974e+01
1.940000e-06	-2.652848e-10	-1.458194e-10	-2.362132e+00	-1.812198e+01
1.950000e-06	-2.582367e-10	-1.444273e-10	-2.299375e+00	-1.768332e+01
1.960000e-06	-2.511714e-10	-1.416540e-10	-2.236465e+00	-1.725627e+01
1.970000e-06	-2.440843e-10	-1.362915e-10	-2.173360e+00	-1.684139e+01
1.980000e-06	-2.369842e-10	-1.299770e-10	-2.110140e+00	-1.643731e+01
1.990000e-06	-2.298598e-10	-1.252493e-10	-2.046704e+00	-1.604107e+01
2.000000e-06	-2.227122e-10	-1.234344e-10	-1.983060e+00	-1.564862e+01
2.010000e-06	-2.155473e-10	-1.224487e-10	-1.919263e+00	-1.525555e+01
2.020000e-06	-2.083806e-10	-1.211412e-10	-1.855450e+00	-1.485775e+01
2.030000e-06	-2.012118e-10	-1.200418e-10	-1.791618e+00	-1.445215e+01
2.040000e-06	-1.940249e-10	-1.188195e-10	-1.727625e+00	-1.403716e+01
2.050000e-06	-1.868287e-10	-1.149988e-10	-1.663549e+00	-1.361300e+01
2.060000e-06	-1.796262e-10	-1.074737e-10	-1.599417e+00	-1.318165e+01
2.070000e-06	-1.724119e-10	-1.008954e-10	-1.535180e+00	-1.274662e+01
2.080000e-06	-1.651943e-10	-9.836809e-11	-1.470913e+00	-1.231248e+01
2.090000e-06	-1.579680e-10	-9.809560e-11	-1.406569e+00	-1.188419e+01
2.100000e-06	-1.507321e-10	-9.623755e-11	-1.342140e+00	-1.146644e+01
2.110000e-06	-1.434921e-10	-9.248751e-11	-1.277674e+00	-1.106299e+01
2.120000e-06	-1.362490e-10	-8.838421e-11	-1.213181e+00	-1.067619e+01
2.130000e-06	-1.290012e-10	-8.310410e-11	-1.148645e+00	-1.030664e+01
2.140000e-06	-1.217505e-10	-7.820582e-11	-1.084084e+00	-9.953184e+00
2.150000e-06	-1.145018e-10	-7.562298e-11	-1.019540e+00	-9.613048e+00
2.160000e-06	-1.072499e-10	-7.452490e-11	-9.549687e-01	-9.282298e+00
2.170000e-06	-9.999268e-11	-7.399437e-11	-8.903492e-01	-8.956372e+00
2.180000e-06	-9.273053e-11	-7.206080e-11	-8.256861e-01	-8.630705e+00
2.190000e-06	-8.546323e-11	-6.755973e-11	-7.609770e-01	-8.301329e+00
2.200000e-06	-7.819578e-11	-6.219270e-11	-6.962667e-01	-7.965351e+00
2.210000e-06	-7.092866e-11	-5.579168e-11	-6.315593e-01	-7.621256e+00
2.220000e-06	-6.366107e-11	-5.023387e-11	-5.668476e-01	-7.268993e+00
2.230000e-06	-5.639323e-11	-4.969119e-11	-5.021338e-01	-6.909838e+00
2.240000e-06	-4.912162e-11	-5.162575e-11	-4.373864e-01	-6.546066e+00
2.250000e-06	-4.184915e-11	-5.191182e-11	-3.726313e-01	-6.180488e+00
2.260000e-06	-3.457781e-11	-4.884012e-11	-3.078863e-01	-5.815921e+00
2.270000e-06	-2.730559e-11	-4.266786e-11	-2.431335e-01	-5.454692e+00
2.280000e-06	-2.003247e-11	-3.530273e-11	-1.783726e-01	-5.098235e+00
2.290000e-06	-1.275920e-11	-2.845583e-11	-1.136104e-01	-4.746846e+00
2.300000e-06	-5.487023e-12	-2.317695e-11	-4.885795e-02	-4.399638e+00
2.310000e-06	1.787841e-12	-2.201306e-11	1.591843e-02	-4.054681e+00
2.320000e-06	9.061929e-12	-2.446527e-11	8.068789e-02	-3.709317e+00
2.330000e-06	1.633430e-11	-2.459519e-11	1.454421e-01	-3.360588e+00
2.340000e-06	2.360947e-11	-2.130268e-11	2.102212e-01	-3.005702e+00
2.350000e-06	3.088022e-11	-1.619011e-11	2.749609e-01	-2.642472e+00
2.360000e-06	3.814846e-11	-9.887694e-12	3.396783e-01	-2.269652e+00
2.370000e-06	4.542158e-11	-5.100879e-12	4.044391e-01	-1.887124e+00
2.380000e-06	5.269460e-11	-2.820959e-12	4.691991e-01	-1.495895e+00
2.390000e-06	5.996258e-11	-1.407775e-12	5.339142e-01	-1.097931e+00
2.400000e-06	6.722764e-11	2.069435e-12	5.986033e-01	-6.958335e-01
2.410000e-06	7.449072e-11	7.120575e-12	6.632747e-01	-2.924254e-01
2.420000e-06	8.175003e-11	1.254768e-11	7.279127e-01	1.096835e-01
2.430000e-06	8.900534e-11	1.749601e-11	7.925149e-01	5.084876e-01
2.440000e-06	9.626073e-11	2.139119e-11	8.571179e-01	9.028637e-01
2.450000e-06	1.035155e-10	2.412248e-11	9.217157e-01	1.292693e+00
2.460000e-06	1.107660e-10	2.533972e-11	9.862745e-01	1.678803e+00
2.470000e-06	1.180157e-10	2.716207e-11	1.050827e+00	2.062749e+00
2.480000e-06	1.252698e-10	2.914640e-11	1.115419e+00	2.446451e+00
2.490000e-06	1.325224e-10	3.332628e-11	1.179996e+00	2.831769e+00
2.500000e-06	1.397688e-10	3.972945e-11	1.244519e+00	3.220071e+00
2.510000e-06	1.470100e-10	4.389072e-11	1.308996e+00	3.611871e+00
2.520000e-06	1.542426e-10	4.537552e-11	1.373397e+00	4.006606e+00
2.530000e-06	1.614667e-10	4.580754e-11	1.437720e+00	4.402588e+00
2.540000e-06	1.686870e-10	4.648358e-11	1.502011e+00	4.797155e+00
2.550000e-06	1.759048e-10	4.850473e-11	1.566280e+00	5.186996e+00
2.560000e-06	1.831104e-10	5.371712e-11	1.630439e+00	5.568625e+00
2.570000e-06	1.902978e-10	5.910097e-11	1.694437e+00	5.938913e+00
2.580000e-06	1.974748e-10	6.189650e-11	1.758341e+00	6.295623e+00
2.590000e-06	2.046435e-10	6.519013e-11	1.822172e+00	6.637844e+00
2.600000e-06	2.118031e-10	6.725220e-11	1.885923e+00	6.966273e+00
2.610000e-06	2.189580e-10	6.752998e-11	1.949631e+00	7.283273e+00
2.620000e-06	2.260960e-10	6.925387e-11	2.013189e+00	7.592705e+00
2.630000e-06	2.332137e-10	7.228907e-11	2.076566e+00	7.899534e+00
2.640000e-06	2.403188e-10	7.529171e-11	2.139831e+00	8.209257e+00
2.650000e-06	2.474075e-10	7.814733e-11	2.202949e+00	8.527223e+00
2.660000e-06	2.544638e-10	8.010627e-11	2.265780e+00	8.857941e+00
2.670000e-06	2.615081e-10	7.983702e-11	2.328502e+00	9.204454e+00
2.680000e-06	2.685498e-10	7.998869e-11	2.391203e+00	9.567882e+00
2.690000e-06	2.755616e-10	8.250007e-11	2.453637e+00	9.947191e+00
2.700000e-06	2.825459e-10	8.785124e-11	2.515826e+00	1.033923e+01
2.710000e-06	2.895015e-10	9.513201e-11	2.577759e+00	1.073904e+01
2.720000e-06	2.964307e-10	1.010968e-10	2.639458e+00	1.114040e+01
2.730000e-06	3.033447e-10	1.042850e-10	2.701021e+00	1.153653e+01
2.740000e-06	3.102354e-10	1.049595e-10	2.762377e+00	1.192092e+01
2.750000e-06	3.170964e-10	1.043725e-10	2.823468e+00	1.228811e+01
2.760000e-06	3.239349e-10	1.043247e-10	2.884359e+00	1.263438e+01
2.770000e-06	3.307485e-10	1.064047e-10	2.945028e+00	1.295825e+01
2.780000e-06	3.375299e-10	1.108608e-10	3.005411e+00	1.326068e+01
2.790000e-06	3.442786e-10	1.155722e-10	3.065502e+00	1.354508e+01
2.800000e-06	3.510008e-10	1.187931e-10	3.125358e+00	1.381691e+01
2.810000e-06	3.577067e-10	1.190457e-10	3.185068e+00	1.408318e+01
2.820000e-06	3.643869e-10	1.173253e-10	3.244550e+00	1.435167e+01
2.830000e-06	3.710369e-10	1.166609e-10	3.303762e+00	1.463016e+01
2.840000e-06	3.776710e-10	1.178609e-10	3.362833e+00	1.492555e+01
2.850000e-06	3.842843e-10	1.224004e-10	3.421719e+00	1.524323e+01
2.860000e-06	3.908723e-10	1.289840e-10	3.480379e+00	1.558653e+01
2.870000e-06	3.974443e-10	1.337190e-10	3.538897e+00	1.595640e+01
